Dimension (n),Insertion Sort,Merge Sort,Hybrid Sort,Quick Sort,Median of Three Quick Sort,Tail Recursive Quick Sort,Heap Sort,Median of Three Tail Quick Sort,Hybrid Tail Recursive Median of Three Quick Sort
0,0.230000,0.210000,0.200000,0.180000,0.230000,0.200000,0.210000,0.240000,0.210000
1000,311.450000,81.160000,51.790000,50.500000,49.550000,47.330000,68.060000,49.160000,45.310000
2000,1019.620000,150.450000,97.110000,96.790000,97.410000,97.150000,133.980000,97.140000,95.970000
3000,2232.640000,234.800000,179.860000,152.780000,152.940000,154.720000,210.020000,152.480000,150.860000
4000,3940.890000,319.970000,211.510000,209.780000,209.980000,210.490000,289.130000,209.640000,206.930000
5000,6159.290000,409.030000,292.330000,269.760000,269.060000,270.650000,370.460000,268.490000,264.900000
6000,8844.010000,499.160000,385.640000,329.680000,329.510000,331.410000,452.590000,328.710000,324.530000
7000,12032.200000,588.350000,380.780000,391.860000,390.050000,392.790000,536.290000,389.570000,384.130000
8000,15694.440000,676.650000,456.750000,455.560000,452.180000,458.070000,623.520000,451.090000,446.260000
9000,19886.250000,770.800000,541.100000,517.700000,513.270000,520.720000,711.980000,511.870000,505.320000
10000,24548.420000,860.790000,629.440000,582.140000,576.490000,585.010000,798.720000,575.310000,567.520000
11000,29639.070000,955.130000,721.920000,645.420000,639.260000,647.690000,888.000000,638.170000,628.830000
12000,35325.430000,1045.180000,821.480000,710.670000,704.310000,716.130000,978.330000,702.720000,692.880000
13000,41419.420000,1140.440000,743.960000,776.100000,766.720000,780.210000,1069.630000,764.910000,754.270000
14000,48006.890000,1231.190000,821.690000,841.430000,832.270000,844.760000,1161.610000,830.160000,823.440000
15000,55159.580000,1322.080000,900.830000,907.210000,898.250000,911.750000,1254.030000,895.080000,883.120000
16000,62712.720000,1410.180000,983.780000,974.190000,963.790000,979.040000,1349.390000,961.530000,949.010000
17000,70800.340000,1513.040000,1072.950000,1042.570000,1028.010000,1047.400000,1443.990000,1025.630000,1012.660000
18000,79407.570000,1608.260000,1161.940000,1109.810000,1094.500000,1114.520000,1538.850000,1092.400000,1076.870000
19000,88456.290000,1707.540000,1252.540000,1177.030000,1161.040000,1181.710000,1634.070000,1158.330000,1143.840000
20000,98044.520000,1804.220000,1348.380000,1245.040000,1230.520000,1250.460000,1730.110000,1228.250000,1211.700000
21000,107999.650000,1895.880000,1438.340000,1313.360000,1295.300000,1317.460000,1825.150000,1292.640000,1274.290000
22000,118620.400000,1998.130000,1539.780000,1382.530000,1358.580000,1390.530000,1922.170000,1354.770000,1336.280000
23000,129755.320000,2095.960000,1644.780000,1449.690000,1429.840000,1455.640000,2017.780000,1429.370000,1407.350000
24000,141113.060000,2189.070000,1751.910000,1520.840000,1494.690000,1526.920000,2113.800000,1490.460000,1471.810000
25000,153132.680000,2298.440000,1861.830000,1587.450000,1563.840000,1593.290000,2212.810000,1559.530000,1540.580000
26000,165572.360000,2417.470000,1607.490000,1663.430000,1633.050000,1670.340000,2310.650000,1629.250000,1608.000000
27000,178404.330000,2506.000000,1686.560000,1729.360000,1705.260000,1737.540000,2409.910000,1699.500000,1676.730000
28000,191908.540000,2587.160000,1771.750000,1798.270000,1765.690000,1807.420000,2508.550000,1761.460000,1737.680000
29000,205787.790000,2679.190000,1856.010000,1870.100000,1839.240000,1880.420000,2609.440000,1835.250000,1810.860000
30000,220258.010000,2800.430000,1941.340000,1941.140000,1905.800000,1949.680000,2709.110000,1900.870000,1875.350000
31000,235306.080000,2900.680000,2028.240000,2010.570000,1977.020000,2022.790000,2814.580000,1972.430000,1946.160000
32000,250835.140000,2988.650000,2121.920000,2083.520000,2048.830000,2091.960000,2912.240000,2042.400000,2015.810000
33000,266602.680000,3098.540000,2215.820000,2150.450000,2115.620000,2159.630000,3015.310000,2110.870000,2082.860000
34000,284139.250000,3218.360000,2311.070000,2226.470000,2181.350000,2240.660000,3118.950000,2176.180000,2147.400000
35000,299787.450000,3323.000000,2403.010000,2293.310000,2253.300000,2304.530000,3218.970000,2248.230000,2217.530000
36000,317293.070000,3428.430000,2498.180000,2367.440000,2332.200000,2392.970000,3319.110000,2320.190000,2289.610000
37000,335042.270000,3503.210000,2590.450000,2440.150000,2395.420000,2451.590000,3421.160000,2389.690000,2359.960000
38000,353374.940000,3623.430000,2687.410000,2510.780000,2466.970000,2525.870000,3520.810000,2461.120000,2430.340000
39000,372175.360000,3733.450000,2787.820000,2581.930000,2531.980000,2595.050000,3624.890000,2525.320000,2492.810000
40000,391795.000000,3825.490000,2884.950000,2658.480000,2605.720000,2676.810000,3724.160000,2588.310000,2566.570000
41000,411466.370000,3914.750000,2990.330000,2730.290000,2677.800000,2741.130000,3829.890000,2672.450000,2637.910000
42000,431874.200000,4028.140000,3093.850000,2796.810000,2748.820000,2815.830000,3932.880000,2742.400000,2708.300000
43000,452692.240000,4146.880000,3192.220000,2873.450000,2821.000000,2888.680000,4040.030000,2814.780000,2776.860000
44000,473811.740000,4231.970000,3295.980000,2945.610000,2885.630000,2957.710000,4137.790000,2879.910000,2838.490000
45000,495515.000000,4317.970000,3402.620000,3018.920000,2959.390000,3034.680000,4245.410000,2952.700000,2913.640000
46000,517883.350000,4437.090000,3512.950000,3088.190000,3025.760000,3098.310000,4346.330000,3018.530000,2977.390000
47000,540934.250000,4549.390000,3622.570000,3175.560000,3100.280000,3187.270000,4460.950000,3093.070000,3052.460000
48000,563999.290000,4644.000000,3734.170000,3246.990000,3172.260000,3251.590000,4564.700000,3164.850000,3125.350000
49000,587798.800000,4729.730000,3843.530000,3317.250000,3247.100000,3340.480000,4666.380000,3238.230000,3198.330000
50000,612055.320000,4863.080000,3960.670000,3385.470000,3318.450000,3400.090000,4776.600000,3311.290000,3264.050000
51000,636491.750000,4986.320000,4071.260000,3454.340000,3389.550000,3468.400000,4872.590000,3381.360000,3335.450000
52000,661453.570000,5071.580000,3461.310000,3533.660000,3463.200000,3545.030000,4977.190000,3461.060000,3409.940000
53000,687488.120000,5138.610000,3544.860000,3602.090000,3529.910000,3617.470000,5091.590000,3521.290000,3473.510000
54000,714041.300000,5294.960000,3633.080000,3675.600000,3603.910000,3695.450000,5195.110000,3779.340000,3758.170000
55000,740827.130000,5388.310000,3718.330000,3755.720000,3678.720000,3772.070000,5300.690000,3668.910000,3620.600000
56000,767404.390000,5475.400000,3806.300000,3834.710000,3745.510000,3860.050000,5406.440000,3737.030000,3688.560000
57000,795065.000000,5546.140000,3892.250000,3909.720000,3827.120000,3932.130000,5512.010000,3815.680000,3774.640000
58000,823526.830000,5660.760000,3983.250000,3983.020000,3898.710000,4000.730000,5630.560000,3881.880000,3832.550000
59000,851765.350000,5789.650000,4070.180000,4052.100000,3970.700000,4070.060000,5734.850000,3960.850000,3911.020000
60000,881402.630000,5891.580000,4166.050000,4132.730000,4047.120000,4149.540000,5847.140000,4038.180000,3985.030000
61000,910924.750000,5975.380000,4253.500000,4200.970000,4115.460000,4225.340000,5950.470000,4106.080000,4054.390000
62000,940620.700000,6077.830000,4344.080000,4278.250000,4188.520000,4300.790000,6051.910000,4177.290000,4128.360000
63000,970751.370000,6202.210000,4434.470000,4355.190000,4255.850000,4376.390000,6168.990000,4245.770000,4189.800000
64000,1002752.750000,6290.470000,4531.280000,4435.630000,4334.480000,4455.300000,6274.600000,4325.550000,4269.390000
65000,1033794.130000,6383.290000,4621.100000,4509.900000,4407.570000,4528.480000,6389.870000,4396.400000,4341.340000
66000,1065781.670000,6439.120000,4667.680000,4574.270000,4481.130000,4603.310000,6501.610000,4468.850000,4411.380000
67000,1098356.220000,6615.410000,4817.230000,4660.010000,4552.920000,4689.660000,6616.680000,4544.590000,4487.830000
68000,1131525.450000,6721.600000,4913.830000,4729.530000,4622.500000,4743.860000,6715.510000,4612.440000,4552.540000
69000,1165050.650000,6818.280000,5010.170000,4804.970000,4695.970000,4830.410000,6825.970000,4686.610000,4625.420000
70000,1199171.600000,6923.110000,5110.880000,4886.370000,4784.790000,4913.330000,6939.750000,4773.680000,4715.450000
71000,1233723.180000,7054.840000,5203.070000,4948.360000,4841.770000,4976.840000,7038.070000,4829.800000,4767.760000
72000,1268454.660000,7144.110000,5310.270000,5023.050000,4921.540000,5051.100000,7151.640000,4911.140000,4852.010000
73000,1304202.840000,7237.870000,5408.730000,5115.530000,4996.850000,5139.600000,7265.360000,4985.550000,4923.030000
74000,1339826.170000,7326.130000,5504.510000,5195.610000,5067.740000,5214.500000,7365.830000,5056.530000,4991.670000
75000,1377099.870000,7454.320000,5600.900000,5267.720000,5147.870000,5289.000000,7482.150000,5135.550000,5068.130000
76000,1413180.320000,7570.540000,5704.740000,5335.830000,5217.990000,5371.170000,7602.590000,5205.920000,5139.080000
77000,1450269.720000,7657.720000,5807.530000,5406.410000,5292.790000,5434.750000,7709.510000,5283.360000,5216.180000
78000,1489311.400000,7750.790000,5911.870000,5492.090000,5362.880000,5520.510000,7811.530000,5351.240000,5285.990000
79000,1527277.890000,7870.590000,6013.130000,5566.640000,5440.720000,5605.250000,7916.040000,5428.570000,5364.060000
80000,1566303.500000,7973.200000,6121.630000,5655.770000,5513.160000,5682.620000,8033.770000,5499.450000,5433.370000
81000,1604780.560000,8060.850000,6224.830000,5722.910000,5587.130000,5745.210000,8138.840000,5572.590000,5501.160000
82000,1646061.230000,8146.980000,6334.730000,5808.430000,5660.570000,5839.220000,8262.820000,5648.600000,5576.750000
83000,1685186.150000,8280.010000,6433.730000,5882.260000,5739.170000,5903.580000,8368.740000,5726.150000,5652.020000
84000,1726485.320000,8396.710000,6543.200000,5943.860000,5811.110000,5971.590000,8484.300000,5796.130000,5725.290000
85000,1768368.570000,8487.920000,6651.040000,6040.980000,5898.740000,6070.840000,8591.430000,5882.960000,5812.270000
86000,1809590.200000,8578.150000,6754.640000,6108.790000,5973.140000,6148.640000,8700.070000,5958.550000,5887.750000
87000,1851802.450000,8714.110000,6866.260000,6169.570000,6036.900000,6214.130000,8817.740000,6024.090000,5949.690000
88000,1895215.260000,8835.170000,6970.410000,6268.880000,6106.970000,6296.050000,8932.620000,6091.590000,6021.610000
89000,1938444.080000,8920.680000,7086.950000,6329.430000,6179.500000,6354.960000,9052.520000,6166.830000,6087.910000
90000,1982750.210000,8997.270000,7196.120000,6409.330000,6256.780000,6448.700000,9164.970000,6240.610000,6162.700000
91000,2027123.290000,9132.170000,7316.350000,6499.930000,6339.470000,6535.460000,9279.610000,6326.010000,6246.530000
92000,2069940.370000,9257.100000,7418.860000,6562.770000,6416.670000,6600.560000,9389.830000,6400.100000,6325.800000
93000,2116086.450000,9345.620000,7535.960000,6642.510000,6479.260000,6678.060000,9506.420000,6467.000000,6378.720000
94000,2162350.340000,9422.500000,7649.650000,6721.390000,6565.380000,6756.870000,9607.410000,6550.930000,6469.300000
95000,2208599.050000,9543.040000,7765.270000,6806.660000,6642.080000,6839.630000,9727.920000,6623.700000,6545.670000
96000,2255305.680000,9668.460000,7876.750000,6887.510000,6712.800000,6924.330000,9835.670000,6697.270000,6615.370000
97000,2302680.020000,9769.520000,7987.960000,6961.860000,6790.810000,6993.980000,9954.780000,6776.270000,6691.990000
98000,2349426.080000,9844.980000,8111.150000,7039.450000,6858.400000,7069.830000,10073.860000,6842.570000,6755.010000
99000,2398323.660000,9975.980000,8233.180000,7108.850000,6944.910000,7150.110000,10182.420000,6928.550000,6850.890000
100000,2447389.940000,10112.060000,8349.580000,7195.170000,7013.720000,7238.340000,10290.220000,6997.420000,6914.560000
